"freq
References : ['MAG','dB(S21)','dB(S(1,1))']
Dependency : [freq]
Num. Points : [5901]
Matrix Size : scalar
Type : Real","MAG
References : []
Dependency : [freq]
Num. Points : [5901]
Matrix Size : scalar
Type : Real","dB(S21)
References : []
Dependency : [freq]
Num. Points : [5901]
Matrix Size : scalar
Type : Real","dB(S(1,1))
References : []
Dependency : [freq]
Num. Points : [5901]
Matrix Size : scalar
Type : Real"
1.000E8,16.232,-43.985,-0.003
1.010E8,16.355,-43.794,-0.003
1.020E8,16.477,-43.605,-0.003
1.030E8,16.597,-43.418,-0.003
1.040E8,16.716,-43.232,-0.003
1.050E8,16.835,-43.047,-0.003
1.060E8,16.952,-42.863,-0.003
1.070E8,17.068,-42.681,-0.003
1.080E8,17.183,-42.500,-0.003
1.090E8,17.297,-42.321,-0.003
1.100E8,17.411,-42.142,-0.003
1.110E8,17.523,-41.965,-0.003
1.120E8,17.634,-41.789,-0.003
1.130E8,17.744,-41.614,-0.003
1.140E8,17.854,-41.440,-0.003
1.150E8,17.962,-41.267,-0.003
1.160E8,18.070,-41.095,-0.003
1.170E8,18.176,-40.924,-0.003
1.180E8,18.282,-40.755,-0.004
1.190E8,18.387,-40.586,-0.004
1.200E8,18.491,-40.418,-0.004
1.210E8,18.594,-40.251,-0.004
1.220E8,18.696,-40.085,-0.004
1.230E8,18.798,-39.920,-0.004
1.240E8,18.898,-39.755,-0.004
1.250E8,18.998,-39.592,-0.004
1.260E8,19.097,-39.429,-0.004
1.270E8,19.195,-39.267,-0.004
1.280E8,19.292,-39.106,-0.004
1.290E8,19.389,-38.946,-0.004
1.300E8,19.484,-38.786,-0.004
1.310E8,19.579,-38.627,-0.004
1.320E8,19.673,-38.469,-0.004
1.330E8,19.766,-38.312,-0.004
1.340E8,19.858,-38.155,-0.004
1.350E8,19.950,-37.999,-0.004
1.360E8,20.041,-37.843,-0.004
1.370E8,20.131,-37.688,-0.004
1.380E8,20.220,-37.533,-0.004
1.390E8,20.308,-37.380,-0.004
1.400E8,20.395,-37.226,-0.004
1.410E8,20.482,-37.074,-0.004
1.420E8,20.568,-36.921,-0.004
1.430E8,20.653,-36.770,-0.004
1.440E8,20.737,-36.618,-0.004
1.450E8,20.820,-36.467,-0.004
1.460E8,20.903,-36.317,-0.004
1.470E8,20.985,-36.167,-0.004
1.480E8,21.066,-36.018,-0.004
1.490E8,21.146,-35.869,-0.004
1.500E8,21.225,-35.720,-0.004
1.510E8,21.303,-35.571,-0.004
1.520E8,21.381,-35.423,-0.004
1.530E8,21.457,-35.276,-0.004
1.540E8,21.533,-35.128,-0.004
1.550E8,21.608,-34.981,-0.004
1.560E8,21.682,-34.835,-0.004
1.570E8,21.755,-34.688,-0.004
1.580E8,21.827,-34.542,-0.004
1.590E8,21.898,-34.396,-0.004
1.600E8,21.968,-34.250,-0.004
1.610E8,22.038,-34.104,-0.004
1.620E8,22.106,-33.959,-0.004
1.630E8,22.173,-33.814,-0.005
1.640E8,22.240,-33.669,-0.005
1.650E8,22.305,-33.524,-0.005
1.660E8,22.369,-33.379,-0.005
1.670E8,22.432,-33.234,-0.005
1.680E8,22.495,-33.090,-0.005
1.690E8,22.556,-32.945,-0.005
1.700E8,22.616,-32.801,-0.005
1.710E8,22.674,-32.656,-0.005
1.720E8,22.732,-32.512,-0.005
1.730E8,22.789,-32.367,-0.005
1.740E8,22.844,-32.223,-0.005
1.750E8,22.898,-32.078,-0.005
1.760E8,22.951,-31.934,-0.005
1.770E8,23.003,-31.789,-0.005
1.780E8,23.053,-31.645,-0.005
1.790E8,23.102,-31.500,-0.005
1.800E8,23.149,-31.355,-0.005
1.810E8,23.196,-31.210,-0.005
1.820E8,23.240,-31.065,-0.005
1.830E8,23.284,-30.920,-0.005
1.840E8,23.326,-30.774,-0.005
1.850E8,23.366,-30.629,-0.005
1.860E8,23.405,-30.483,-0.005
1.870E8,23.442,-30.337,-0.005
1.880E8,23.477,-30.190,-0.005
1.890E8,23.511,-30.044,-0.006
1.900E8,23.543,-29.897,-0.006
1.910E8,23.574,-29.749,-0.006
1.920E8,23.602,-29.602,-0.006
1.930E8,23.629,-29.454,-0.006
1.940E8,23.654,-29.305,-0.006
1.950E8,23.677,-29.157,-0.006
1.960E8,23.698,-29.007,-0.006
1.970E8,23.716,-28.858,-0.006
1.980E8,23.733,-28.708,-0.006
1.990E8,23.748,-28.557,-0.006
2.000E8,23.760,-28.406,-0.006
2.010E8,23.771,-28.254,-0.006
2.020E8,23.778,-28.102,-0.006
2.030E8,23.784,-27.950,-0.006
2.040E8,23.787,-27.797,-0.007
2.050E8,23.788,-27.643,-0.007
2.060E8,23.786,-27.488,-0.007
2.070E8,23.782,-27.333,-0.007
2.080E8,23.775,-27.178,-0.007
2.090E8,23.765,-27.021,-0.007
2.100E8,23.753,-26.864,-0.007
2.110E8,23.738,-26.706,-0.007
2.120E8,23.719,-26.548,-0.007
2.130E8,23.698,-26.389,-0.007
2.140E8,23.674,-26.229,-0.008
2.150E8,23.647,-26.069,-0.008
2.160E8,23.617,-25.907,-0.008
2.170E8,23.584,-25.745,-0.008
2.180E8,23.547,-25.582,-0.008
2.190E8,23.507,-25.419,-0.008
2.200E8,23.464,-25.254,-0.009
2.210E8,23.417,-25.089,-0.009
2.220E8,23.367,-24.923,-0.009
2.230E8,23.314,-24.757,-0.009
2.240E8,23.256,-24.590,-0.009
2.250E8,23.195,-24.422,-0.010
2.260E8,23.131,-24.253,-0.010
2.270E8,23.062,-24.084,-0.010
2.280E8,22.990,-23.915,-0.010
2.290E8,22.914,-23.744,-0.011
2.300E8,22.834,-23.574,-0.011
2.310E8,22.750,-23.403,-0.011
2.320E8,22.662,-23.232,-0.011
2.330E8,22.570,-23.060,-0.012
2.340E8,22.474,-22.889,-0.012
2.350E8,22.373,-22.718,-0.013
2.360E8,22.269,-22.547,-0.013
2.370E8,22.160,-22.376,-0.013
2.380E8,22.047,-22.206,-0.014
2.390E8,21.929,-22.037,-0.014
2.400E8,21.807,-21.869,-0.015
2.410E8,21.681,-21.702,-0.015
2.420E8,21.551,-21.537,-0.016
2.430E8,21.416,-21.374,-0.016
2.440E8,21.276,-21.213,-0.017
2.450E8,21.132,-21.055,-0.018
2.460E8,20.984,-20.900,-0.018
2.470E8,20.831,-20.748,-0.019
2.480E8,20.674,-20.601,-0.020
2.490E8,20.512,-20.459,-0.021
2.500E8,20.346,-20.322,-0.022
2.510E8,20.175,-20.190,-0.022
2.520E8,20.000,-20.066,-0.023
2.530E8,19.821,-19.949,-0.024
2.540E8,19.637,-19.840,-0.025
2.550E8,19.449,-19.740,-0.027
2.560E8,19.257,-19.650,-0.028
2.570E8,19.061,-19.570,-0.029
2.580E8,18.861,-19.502,-0.030
2.590E8,18.657,-19.447,-0.031
2.600E8,18.449,-19.404,-0.033
2.610E8,18.238,-19.376,-0.034
2.620E8,18.023,-19.362,-0.035
2.630E8,17.805,-19.363,-0.037
2.640E8,17.583,-19.381,-0.038
2.650E8,17.359,-19.415,-0.039
2.660E8,17.132,-19.467,-0.041
2.670E8,16.903,-19.536,-0.042
2.680E8,16.672,-19.623,-0.043
2.690E8,16.438,-19.727,-0.045
2.700E8,16.203,-19.850,-0.046
2.710E8,15.967,-19.990,-0.047
2.720E8,15.730,-20.148,-0.048
2.730E8,15.492,-20.322,-0.049
2.740E8,15.255,-20.513,-0.050
2.750E8,15.018,-20.720,-0.051
2.760E8,14.781,-20.941,-0.052
2.770E8,14.546,-21.176,-0.052
2.780E8,14.313,-21.425,-0.053
2.790E8,14.082,-21.685,-0.053
2.800E8,13.854,-21.955,-0.053
2.810E8,13.629,-22.235,-0.054
2.820E8,13.409,-22.522,-0.054
2.830E8,13.193,-22.816,-0.054
2.840E8,12.983,-23.116,-0.053
2.850E8,12.778,-23.418,-0.053
2.860E8,12.581,-23.723,-0.053
2.870E8,12.390,-24.029,-0.052
2.880E8,12.207,-24.334,-0.052
2.890E8,12.033,-24.637,-0.051
2.900E8,11.867,-24.936,-0.051
2.910E8,11.711,-25.231,-0.050
2.920E8,11.566,-25.520,-0.050
2.930E8,11.430,-25.802,-0.049
2.940E8,11.306,-26.076,-0.048
2.950E8,11.193,-26.341,-0.047
2.960E8,11.092,-26.595,-0.047
2.970E8,11.003,-26.839,-0.046
2.980E8,10.927,-27.072,-0.045
2.990E8,10.862,-27.292,-0.044
3.000E8,10.810,-27.500,-0.044
3.010E8,10.771,-27.695,-0.043
3.020E8,10.744,-27.876,-0.042
3.030E8,10.730,-28.045,-0.041
3.040E8,10.728,-28.199,-0.040
3.050E8,10.738,-28.340,-0.040
3.060E8,10.759,-28.468,-0.039
3.070E8,10.792,-28.582,-0.038
3.080E8,10.837,-28.683,-0.038
3.090E8,10.891,-28.771,-0.037
3.100E8,10.956,-28.846,-0.036
3.110E8,11.031,-28.910,-0.036
3.120E8,11.115,-28.961,-0.035
3.130E8,11.208,-29.001,-0.035
3.140E8,11.310,-29.030,-0.034
3.150E8,11.418,-29.049,-0.033
3.160E8,11.535,-29.057,-0.033
3.170E8,11.657,-29.056,-0.032
3.180E8,11.786,-29.046,-0.032
3.190E8,11.921,-29.028,-0.031
3.200E8,12.061,-29.002,-0.031
3.210E8,12.205,-28.968,-0.030
3.220E8,12.354,-28.927,-0.030
3.230E8,12.506,-28.880,-0.029
3.240E8,12.662,-28.826,-0.029
3.250E8,12.821,-28.767,-0.029
3.260E8,12.982,-28.702,-0.028
3.270E8,13.146,-28.632,-0.028
3.280E8,13.311,-28.558,-0.028
3.290E8,13.478,-28.480,-0.027
3.300E8,13.646,-28.398,-0.027
3.310E8,13.815,-28.312,-0.027
3.320E8,13.985,-28.223,-0.026
3.330E8,14.155,-28.131,-0.026
3.340E8,14.326,-28.037,-0.026
3.350E8,14.496,-27.940,-0.025
3.360E8,14.667,-27.840,-0.025
3.370E8,14.837,-27.739,-0.025
3.380E8,15.006,-27.636,-0.025
3.390E8,15.175,-27.531,-0.024
3.400E8,15.343,-27.425,-0.024
3.410E8,15.511,-27.317,-0.024
3.420E8,15.677,-27.208,-0.024
3.430E8,15.843,-27.098,-0.023
3.440E8,16.007,-26.987,-0.023
3.450E8,16.170,-26.876,-0.023
3.460E8,16.332,-26.763,-0.023
3.470E8,16.492,-26.650,-0.023
3.480E8,16.651,-26.536,-0.022
3.490E8,16.809,-26.422,-0.022
3.500E8,16.965,-26.308,-0.022
3.510E8,17.119,-26.193,-0.022
3.520E8,17.272,-26.078,-0.022
3.530E8,17.424,-25.963,-0.021
3.540E8,17.574,-25.848,-0.021
3.550E8,17.722,-25.732,-0.021
3.560E8,17.869,-25.617,-0.021
3.570E8,18.014,-25.501,-0.021
3.580E8,18.157,-25.386,-0.021
3.590E8,18.299,-25.270,-0.021
3.600E8,18.440,-25.155,-0.020
3.610E8,18.578,-25.039,-0.020
3.620E8,18.715,-24.924,-0.020
3.630E8,18.850,-24.809,-0.020
3.640E8,18.984,-24.694,-0.020
3.650E8,19.116,-24.580,-0.020
3.660E8,19.247,-24.465,-0.020
3.670E8,19.376,-24.351,-0.020
3.680E8,19.503,-24.237,-0.020
3.690E8,19.629,-24.123,-0.019
3.700E8,19.754,-24.009,-0.019
3.710E8,19.877,-23.896,-0.019
3.720E8,19.998,-23.782,-0.019
3.730E8,20.118,-23.670,-0.019
3.740E8,20.236,-23.557,-0.019
3.750E8,20.353,-23.444,-0.019
3.760E8,20.469,-23.332,-0.019
3.770E8,20.583,-23.220,-0.019
3.780E8,20.695,-23.109,-0.019
3.790E8,20.806,-22.997,-0.019
3.800E8,20.916,-22.886,-0.019
3.810E8,21.025,-22.775,-0.018
3.820E8,21.132,-22.664,-0.018
3.830E8,21.238,-22.554,-0.018
3.840E8,21.343,-22.444,-0.018
3.850E8,21.446,-22.334,-0.018
3.860E8,21.548,-22.224,-0.018
3.870E8,21.649,-22.114,-0.018
3.880E8,21.748,-22.005,-0.018
3.890E8,21.847,-21.896,-0.018
3.900E8,21.944,-21.787,-0.018
3.910E8,22.040,-21.679,-0.018
3.920E8,22.135,-21.570,-0.018
3.930E8,22.228,-21.462,-0.018
3.940E8,22.321,-21.354,-0.018
3.950E8,22.412,-21.246,-0.018
3.960E8,22.503,-21.139,-0.018
3.970E8,22.592,-21.031,-0.018
3.980E8,22.680,-20.924,-0.018
3.990E8,22.768,-20.817,-0.017
4.000E8,22.854,-20.710,-0.017
4.010E8,22.939,-20.603,-0.017
4.020E8,23.023,-20.497,-0.017
4.030E8,23.106,-20.390,-0.017
4.040E8,23.188,-20.284,-0.017
4.050E8,23.270,-20.178,-0.017
4.060E8,23.350,-20.072,-0.017
4.070E8,23.429,-19.966,-0.017
4.080E8,23.508,-19.860,-0.017
4.090E8,23.585,-19.754,-0.017
4.100E8,23.662,-19.648,-0.017
4.110E8,23.738,-19.543,-0.017
4.120E8,23.813,-19.437,-0.017
4.130E8,23.887,-19.332,-0.017
4.140E8,23.960,-19.227,-0.017
4.150E8,24.033,-19.122,-0.017
4.160E8,24.104,-19.016,-0.017
4.170E8,24.175,-18.911,-0.017
4.180E8,24.245,-18.806,-0.017
4.190E8,24.314,-18.701,-0.017
4.200E8,24.383,-18.596,-0.017
4.210E8,24.451,-18.491,-0.017
4.220E8,24.518,-18.386,-0.017
4.230E8,24.584,-18.282,-0.017
4.240E8,24.650,-18.177,-0.017
4.250E8,24.714,-18.072,-0.017
4.260E8,24.779,-17.967,-0.017
4.270E8,24.842,-17.862,-0.017
4.280E8,24.905,-17.757,-0.017
4.290E8,24.967,-17.652,-0.017
4.300E8,25.029,-17.547,-0.016
4.310E8,25.089,-17.442,-0.016
4.320E8,25.150,-17.337,-0.016
4.330E8,25.209,-17.232,-0.016
4.340E8,25.268,-17.127,-0.016
4.350E8,25.326,-17.021,-0.016
4.360E8,25.384,-16.916,-0.016
4.370E8,25.441,-16.811,-0.016
4.380E8,25.498,-16.705,-0.016
4.390E8,25.554,-16.600,-0.016
4.400E8,25.609,-16.494,-0.016
4.410E8,25.664,-16.388,-0.016
4.420E8,25.718,-16.282,-0.016
4.430E8,25.772,-16.176,-0.016
4.440E8,25.825,-16.070,-0.016
4.450E8,25.878,-15.964,-0.016
4.460E8,25.930,-15.857,-0.016
4.470E8,25.982,-15.751,-0.016
4.480E8,26.033,-15.644,-0.016
4.490E8,26.083,-15.537,-0.016
4.500E8,26.134,-15.430,-0.016
4.510E8,26.183,-15.323,-0.016
4.520E8,26.232,-15.215,-0.016
4.530E8,26.281,-15.108,-0.016
4.540E8,26.329,-15.000,-0.016
4.550E8,26.377,-14.892,-0.016
4.560E8,26.424,-14.783,-0.016
4.570E8,26.471,-14.675,-0.016
4.580E8,26.517,-14.566,-0.016
4.590E8,26.563,-14.457,-0.016
4.600E8,26.609,-14.348,-0.016
4.610E8,26.654,-14.238,-0.016
4.620E8,26.699,-14.128,-0.016
4.630E8,26.743,-14.018,-0.016
4.640E8,26.787,-13.908,-0.016
4.650E8,26.830,-13.797,-0.016
4.660E8,26.873,-13.686,-0.016
4.670E8,26.916,-13.575,-0.016
4.680E8,26.958,-13.463,-0.016
4.690E8,27.000,-13.351,-0.016
4.700E8,27.041,-13.239,-0.016
4.710E8,27.082,-13.126,-0.016
4.720E8,27.123,-13.013,-0.016
4.730E8,27.163,-12.899,-0.016
4.740E8,27.203,-12.786,-0.016
4.750E8,27.243,-12.671,-0.016
4.760E8,27.282,-12.557,-0.016
4.770E8,27.321,-12.442,-0.016
4.780E8,27.359,-12.326,-0.016
4.790E8,27.397,-12.210,-0.016
4.800E8,27.435,-12.094,-0.016
4.810E8,27.473,-11.977,-0.016
4.820E8,27.510,-11.860,-0.016
4.830E8,27.547,-11.742,-0.016
4.840E8,27.583,-11.624,-0.016
4.850E8,27.619,-11.505,-0.016
4.860E8,27.655,-11.385,-0.016
4.870E8,27.691,-11.265,-0.016
4.880E8,27.726,-11.145,-0.016
4.890E8,27.761,-11.024,-0.016
4.900E8,27.795,-10.902,-0.016
4.910E8,27.829,-10.780,-0.016
4.920E8,27.863,-10.657,-0.016
4.930E8,27.897,-10.534,-0.016
4.940E8,27.930,-10.410,-0.016
4.950E8,27.963,-10.285,-0.016
4.960E8,27.995,-10.159,-0.016
4.970E8,28.028,-10.033,-0.016
4.980E8,28.060,-9.906,-0.016
4.990E8,28.091,-9.779,-0.016
5.000E8,28.123,-9.650,-0.016
5.010E8,28.154,-9.521,-0.016
5.020E8,28.185,-9.391,-0.016
5.030E8,28.215,-9.260,-0.016
5.040E8,28.245,-9.129,-0.016
5.050E8,28.275,-8.996,-0.016
5.060E8,28.304,-8.863,-0.016
5.070E8,28.333,-8.729,-0.016
5.080E8,28.362,-8.594,-0.016
5.090E8,28.390,-8.458,-0.016
5.100E8,28.418,-8.321,-0.016
5.110E8,28.446,-8.183,-0.016
5.120E8,28.473,-8.044,-0.016
5.130E8,28.500,-7.904,-0.016
5.140E8,28.526,-7.762,-0.016
5.150E8,28.552,-7.620,-0.016
5.160E8,28.577,-7.477,-0.016
5.170E8,28.602,-7.332,-0.016
5.180E8,28.627,-7.186,-0.017
5.190E8,28.651,-7.039,-0.017
5.200E8,28.674,-6.891,-0.017
5.210E8,28.696,-6.741,-0.017
5.220E8,28.718,-6.591,-0.017
5.230E8,28.739,-6.438,-0.017
5.240E8,28.759,-6.285,-0.017
5.250E8,28.778,-6.129,-0.017
5.260E8,28.796,-5.973,-0.017
5.270E8,28.813,-5.815,-0.017
5.280E8,28.828,-5.655,-0.018
5.290E8,28.842,-5.493,-0.018
5.300E8,28.854,-5.330,-0.018
5.310E8,28.865,-5.165,-0.018
5.320E8,28.873,-4.999,-0.018
5.330E8,28.879,-4.830,-0.018
5.340E8,28.882,-4.660,-0.019
5.350E8,28.882,-4.487,-0.019
5.360E8,28.880,-4.313,-0.019
5.370E8,28.875,-4.136,-0.019
5.380E8,28.866,-3.958,-0.020
5.390E8,28.855,-3.777,-0.020
5.400E8,28.841,-3.593,-0.020
5.410E8,28.825,-3.408,-0.021
5.420E8,28.806,-3.220,-0.021
5.430E8,28.785,-3.029,-0.021
5.440E8,28.762,-2.835,-0.022
5.450E8,28.737,-2.639,-0.022
5.460E8,28.711,-2.440,-0.023
5.470E8,28.683,-2.238,-0.023
5.480E8,28.655,-2.033,-0.024
5.490E8,28.625,-1.824,-0.025
5.500E8,28.595,-1.612,-0.025
5.510E8,28.564,-1.397,-0.026
5.520E8,28.533,-1.178,-0.027
5.530E8,28.501,-0.955,-0.028
5.540E8,28.468,-0.729,-0.029
5.550E8,28.436,-0.498,-0.030
5.560E8,28.403,-0.263,-0.031
5.570E8,28.370,-0.023,-0.032
5.580E8,28.336,0.221,-0.034
5.590E8,28.303,0.471,-0.035
5.600E8,28.269,0.725,-0.037
5.610E8,28.235,0.985,-0.039
5.620E8,28.201,1.250,-0.041
5.630E8,28.167,1.522,-0.043
5.640E8,28.134,1.800,-0.046
5.650E8,28.100,2.084,-0.049
5.660E8,28.066,2.375,-0.052
5.670E8,28.032,2.674,-0.055
5.680E8,27.998,2.981,-0.059
5.690E8,27.964,3.295,-0.064
5.700E8,27.930,3.618,-0.069
5.710E8,27.896,3.951,-0.074
5.720E8,27.862,4.293,-0.081
5.730E8,27.829,4.645,-0.088
5.740E8,27.795,5.008,-0.096
5.750E8,27.761,5.383,-0.105
5.760E8,27.728,5.770,-0.115
5.770E8,27.694,6.170,-0.128
5.780E8,27.661,6.584,-0.142
5.790E8,27.628,7.013,-0.158
5.800E8,27.594,7.457,-0.177
5.810E8,27.561,7.918,-0.199
5.820E8,27.528,8.396,-0.225
5.830E8,27.495,8.892,-0.256
5.840E8,27.462,9.406,-0.293
5.850E8,27.429,9.939,-0.337
5.860E8,27.397,10.491,-0.389
5.870E8,27.364,11.062,-0.453
5.880E8,27.331,11.648,-0.531
5.890E8,27.299,12.247,-0.624
5.900E8,27.267,12.853,-0.738
5.910E8,27.234,13.458,-0.874
5.920E8,27.202,14.048,-1.036
5.930E8,27.170,14.606,-1.221
5.940E8,27.138,15.108,-1.424
5.950E8,27.106,15.527,-1.631
5.960E8,27.074,15.834,-1.816
5.970E8,27.042,16.005,-1.948
5.980E8,27.011,16.027,-2.004
5.990E8,26.979,15.899,-1.974
6.000E8,26.948,15.639,-1.871
6.010E8,26.916,15.270,-1.722
6.020E8,26.885,14.822,-1.553
6.030E8,26.854,14.322,-1.383
6.040E8,26.823,13.792,-1.225
6.050E8,26.792,13.249,-1.084
6.060E8,26.761,12.707,-0.961
6.070E8,26.730,12.172,-0.856
6.080E8,26.699,11.651,-0.765
6.090E8,26.668,11.146,-0.688
6.100E8,26.638,10.660,-0.622
6.110E8,26.607,10.192,-0.565
6.120E8,26.577,9.744,-0.516
6.130E8,26.546,9.314,-0.474
6.140E8,26.516,8.901,-0.437
6.150E8,26.486,8.506,-0.405
6.160E8,26.456,8.128,-0.377
6.170E8,26.426,7.764,-0.352
6.180E8,26.396,7.415,-0.330
6.190E8,26.366,7.080,-0.310
6.200E8,26.337,6.758,-0.293
6.210E8,26.307,6.448,-0.277
6.220E8,26.277,6.150,-0.263
6.230E8,26.248,5.863,-0.250
6.240E8,26.219,5.585,-0.238
6.250E8,26.189,5.317,-0.228
6.260E8,26.160,5.059,-0.218
6.270E8,26.131,4.809,-0.209
6.280E8,26.102,4.567,-0.201
6.290E8,26.073,4.333,-0.194
6.300E8,26.044,4.106,-0.187
6.310E8,26.015,3.886,-0.181
6.320E8,25.986,3.673,-0.175
6.330E8,25.958,3.466,-0.169
6.340E8,25.929,3.265,-0.164
6.350E8,25.900,3.069,-0.159
6.360E8,25.872,2.879,-0.155
6.370E8,25.844,2.694,-0.151
6.380E8,25.815,2.515,-0.147
6.390E8,25.787,2.339,-0.144
6.400E8,25.759,2.169,-0.140
6.410E8,25.731,2.002,-0.137
6.420E8,25.703,1.840,-0.134
6.430E8,25.675,1.682,-0.131
6.440E8,25.647,1.527,-0.129
6.450E8,25.619,1.377,-0.126
6.460E8,25.592,1.229,-0.124
6.470E8,25.564,1.085,-0.121
6.480E8,25.536,0.945,-0.119
6.490E8,25.509,0.807,-0.117
6.500E8,25.482,0.673,-0.115
6.510E8,25.454,0.541,-0.113
6.520E8,25.427,0.412,-0.112
6.530E8,25.400,0.286,-0.110
6.540E8,25.373,0.163,-0.109
6.550E8,25.345,0.042,-0.107
6.560E8,25.318,-0.076,-0.106
6.570E8,25.291,-0.193,-0.104
6.580E8,25.265,-0.306,-0.103
6.590E8,25.238,-0.418,-0.102
6.600E8,25.211,-0.527,-0.100
6.610E8,25.184,-0.635,-0.099
6.620E8,25.158,-0.740,-0.098
6.630E8,25.131,-0.843,-0.097
6.640E8,25.105,-0.945,-0.096
6.650E8,25.078,-1.044,-0.095
6.660E8,25.052,-1.142,-0.094
6.670E8,25.026,-1.238,-0.093
6.680E8,24.999,-1.333,-0.093
6.690E8,24.973,-1.425,-0.092
6.700E8,24.947,-1.516,-0.091
6.710E8,24.921,-1.606,-0.090
6.720E8,24.895,-1.694,-0.090
6.730E8,24.869,-1.781,-0.089
6.740E8,24.843,-1.866,-0.088
6.750E8,24.817,-1.950,-0.088
6.760E8,24.792,-2.032,-0.087
6.770E8,24.766,-2.113,-0.086
6.780E8,24.740,-2.193,-0.086
6.790E8,24.715,-2.271,-0.085
6.800E8,24.689,-2.348,-0.085
6.810E8,24.664,-2.424,-0.084
6.820E8,24.638,-2.499,-0.084
6.830E8,24.613,-2.573,-0.083
6.840E8,24.588,-2.646,-0.083
6.850E8,24.562,-2.717,-0.082
6.860E8,24.537,-2.787,-0.082
6.870E8,24.512,-2.857,-0.081
6.880E8,24.487,-2.925,-0.081
6.890E8,24.462,-2.993,-0.081
6.900E8,24.437,-3.059,-0.080
6.910E8,24.412,-3.124,-0.080
6.920E8,24.387,-3.189,-0.080
6.930E8,24.362,-3.252,-0.079
6.940E8,24.338,-3.315,-0.079
6.950E8,24.313,-3.377,-0.079
6.960E8,24.288,-3.438,-0.078
6.970E8,24.264,-3.498,-0.078
6.980E8,24.239,-3.557,-0.078
6.990E8,24.215,-3.615,-0.078
7.000E8,24.190,-3.673,-0.077
7.010E8,24.166,-3.730,-0.077
7.020E8,24.142,-3.786,-0.077
7.030E8,24.117,-3.841,-0.077
7.040E8,24.093,-3.896,-0.076
7.050E8,24.069,-3.949,-0.076
7.060E8,24.045,-4.003,-0.076
7.070E8,24.021,-4.055,-0.076
7.080E8,23.997,-4.107,-0.076
7.090E8,23.973,-4.158,-0.075
7.100E8,23.949,-4.208,-0.075
7.110E8,23.925,-4.258,-0.075
7.120E8,23.901,-4.307,-0.075
7.130E8,23.877,-4.356,-0.075
7.140E8,23.853,-4.404,-0.075
7.150E8,23.830,-4.451,-0.074
7.160E8,23.806,-4.498,-0.074
7.170E8,23.782,-4.544,-0.074
7.180E8,23.759,-4.590,-0.074
7.190E8,23.735,-4.635,-0.074
7.200E8,23.712,-4.679,-0.074
7.210E8,23.688,-4.723,-0.074
7.220E8,23.665,-4.766,-0.074
7.230E8,23.642,-4.809,-0.073
7.240E8,23.618,-4.852,-0.073
7.250E8,23.595,-4.893,-0.073
7.260E8,23.572,-4.935,-0.073
7.270E8,23.549,-4.976,-0.073
7.280E8,23.525,-5.016,-0.073
7.290E8,23.502,-5.056,-0.073
7.300E8,23.479,-5.095,-0.073
7.310E8,23.456,-5.134,-0.073
7.320E8,23.433,-5.173,-0.073
7.330E8,23.410,-5.211,-0.073
7.340E8,23.388,-5.248,-0.073
7.350E8,23.365,-5.286,-0.073
7.360E8,23.342,-5.322,-0.073
7.370E8,23.319,-5.359,-0.073
7.380E8,23.296,-5.395,-0.073
7.390E8,23.274,-5.430,-0.073
7.400E8,23.251,-5.465,-0.072
7.410E8,23.229,-5.500,-0.072
7.420E8,23.206,-5.534,-0.072
7.430E8,23.183,-5.568,-0.072
7.440E8,23.161,-5.602,-0.072
7.450E8,23.139,-5.635,-0.072
7.460E8,23.116,-5.668,-0.072
7.470E8,23.094,-5.700,-0.072
7.480E8,23.072,-5.732,-0.072
7.490E8,23.049,-5.764,-0.072
7.500E8,23.027,-5.795,-0.072
7.510E8,23.005,-5.826,-0.072
7.520E8,22.983,-5.857,-0.072
7.530E8,22.961,-5.887,-0.072
7.540E8,22.938,-5.917,-0.072
7.550E8,22.916,-5.947,-0.072
7.560E8,22.894,-5.976,-0.072
7.570E8,22.872,-6.005,-0.072
7.580E8,22.850,-6.034,-0.072
7.590E8,22.829,-6.062,-0.072
7.600E8,22.807,-6.090,-0.073
7.610E8,22.785,-6.118,-0.073
7.620E8,22.763,-6.146,-0.073
